# Pulseq sequence file
# Created by MATLAB mr toolbox

[VERSION]
major 1
minor 3
revision 1

# Format of blocks:
#  #  D RF  GX  GY  GZ ADC EXT
[BLOCKS]
1 0 1 0 0 0 0 0
2 0 0 0 0 0 1 0
3 1 0 0 0 0 0 0
4 0 3 0 0 0 0 0
5 0 0 0 0 0 1 0
6 1 0 0 0 0 0 0
7 0 2 0 0 0 0 0
8 0 0 0 0 0 1 0
9 2 0 0 0 0 0 0
10 0 1 0 0 0 0 0
11 0 0 0 0 0 1 0
12 1 0 0 0 0 0 0
13 0 3 0 0 0 0 0
14 0 0 0 0 0 1 0
15 1 0 0 0 0 0 0
16 0 2 0 0 0 0 0
17 0 0 0 0 0 1 0
18 2 0 0 0 0 0 0
19 0 1 0 0 0 0 0
20 0 0 0 0 0 1 0
21 1 0 0 0 0 0 0
22 0 3 0 0 0 0 0
23 0 0 0 0 0 1 0
24 1 0 0 0 0 0 0
25 0 2 0 0 0 0 0
26 0 0 0 0 0 1 0
27 2 0 0 0 0 0 0
28 0 1 0 0 0 0 0
29 0 0 0 0 0 1 0
30 1 0 0 0 0 0 0
31 0 3 0 0 0 0 0
32 0 0 0 0 0 1 0
33 1 0 0 0 0 0 0
34 0 2 0 0 0 0 0
35 0 0 0 0 0 1 0
36 2 0 0 0 0 0 0
37 0 1 0 0 0 0 0
38 0 0 0 0 0 1 0
39 1 0 0 0 0 0 0
40 0 3 0 0 0 0 0
41 0 0 0 0 0 1 0
42 1 0 0 0 0 0 0
43 0 2 0 0 0 0 0
44 0 0 0 0 0 1 0
45 2 0 0 0 0 0 0
46 0 1 0 0 0 0 0
47 0 0 0 0 0 1 0
48 1 0 0 0 0 0 0
49 0 3 0 0 0 0 0
50 0 0 0 0 0 1 0
51 1 0 0 0 0 0 0
52 0 2 0 0 0 0 0
53 0 0 0 0 0 1 0
54 2 0 0 0 0 0 0
55 0 1 0 0 0 0 0
56 0 0 0 0 0 1 0
57 1 0 0 0 0 0 0
58 0 3 0 0 0 0 0
59 0 0 0 0 0 1 0
60 1 0 0 0 0 0 0
61 0 2 0 0 0 0 0
62 0 0 0 0 0 1 0
63 2 0 0 0 0 0 0
64 0 1 0 0 0 0 0
65 0 0 0 0 0 1 0
66 1 0 0 0 0 0 0
67 0 3 0 0 0 0 0
68 0 0 0 0 0 1 0
69 1 0 0 0 0 0 0
70 0 2 0 0 0 0 0
71 0 0 0 0 0 1 0
72 2 0 0 0 0 0 0
73 0 1 0 0 0 0 0
74 0 0 0 0 0 1 0
75 1 0 0 0 0 0 0
76 0 3 0 0 0 0 0
77 0 0 0 0 0 1 0
78 1 0 0 0 0 0 0
79 0 2 0 0 0 0 0
80 0 0 0 0 0 1 0
81 2 0 0 0 0 0 0
82 0 1 0 0 0 0 0
83 0 0 0 0 0 1 0
84 1 0 0 0 0 0 0
85 0 3 0 0 0 0 0
86 0 0 0 0 0 1 0
87 1 0 0 0 0 0 0
88 0 2 0 0 0 0 0
89 0 0 0 0 0 1 0
90 2 0 0 0 0 0 0
91 0 1 0 0 0 0 0
92 0 0 0 0 0 1 0
93 1 0 0 0 0 0 0
94 0 3 0 0 0 0 0
95 0 0 0 0 0 1 0
96 1 0 0 0 0 0 0
97 0 2 0 0 0 0 0
98 0 0 0 0 0 1 0
99 2 0 0 0 0 0 0
100 0 1 0 0 0 0 0
101 0 0 0 0 0 1 0
102 1 0 0 0 0 0 0
103 0 3 0 0 0 0 0
104 0 0 0 0 0 1 0
105 1 0 0 0 0 0 0
106 0 2 0 0 0 0 0
107 0 0 0 0 0 1 0
108 2 0 0 0 0 0 0
109 0 1 0 0 0 0 0
110 0 0 0 0 0 1 0
111 1 0 0 0 0 0 0
112 0 3 0 0 0 0 0
113 0 0 0 0 0 1 0
114 1 0 0 0 0 0 0
115 0 2 0 0 0 0 0
116 0 0 0 0 0 1 0
117 2 0 0 0 0 0 0
118 0 1 0 0 0 0 0
119 0 0 0 0 0 1 0
120 1 0 0 0 0 0 0
121 0 3 0 0 0 0 0
122 0 0 0 0 0 1 0
123 1 0 0 0 0 0 0
124 0 2 0 0 0 0 0
125 0 0 0 0 0 1 0
126 2 0 0 0 0 0 0
127 0 1 0 0 0 0 0
128 0 0 0 0 0 1 0
129 1 0 0 0 0 0 0
130 0 3 0 0 0 0 0
131 0 0 0 0 0 1 0
132 1 0 0 0 0 0 0
133 0 2 0 0 0 0 0
134 0 0 0 0 0 1 0
135 2 0 0 0 0 0 0
136 0 1 0 0 0 0 0
137 0 0 0 0 0 1 0
138 1 0 0 0 0 0 0
139 0 3 0 0 0 0 0
140 0 0 0 0 0 1 0
141 1 0 0 0 0 0 0
142 0 2 0 0 0 0 0
143 0 0 0 0 0 1 0
144 2 0 0 0 0 0 0
145 0 1 0 0 0 0 0
146 0 0 0 0 0 1 0
147 1 0 0 0 0 0 0
148 0 3 0 0 0 0 0
149 0 0 0 0 0 1 0
150 1 0 0 0 0 0 0
151 0 2 0 0 0 0 0
152 0 0 0 0 0 1 0
153 2 0 0 0 0 0 0
154 0 1 0 0 0 0 0
155 0 0 0 0 0 1 0
156 1 0 0 0 0 0 0
157 0 3 0 0 0 0 0
158 0 0 0 0 0 1 0
159 1 0 0 0 0 0 0
160 0 2 0 0 0 0 0
161 0 0 0 0 0 1 0
162 2 0 0 0 0 0 0
163 0 1 0 0 0 0 0
164 0 0 0 0 0 1 0
165 1 0 0 0 0 0 0
166 0 3 0 0 0 0 0
167 0 0 0 0 0 1 0
168 1 0 0 0 0 0 0
169 0 2 0 0 0 0 0
170 0 0 0 0 0 1 0
171 2 0 0 0 0 0 0
172 0 1 0 0 0 0 0
173 0 0 0 0 0 1 0
174 1 0 0 0 0 0 0
175 0 3 0 0 0 0 0
176 0 0 0 0 0 1 0
177 1 0 0 0 0 0 0
178 0 2 0 0 0 0 0
179 0 0 0 0 0 1 0
180 2 0 0 0 0 0 0
181 0 1 0 0 0 0 0
182 0 0 0 0 0 1 0
183 1 0 0 0 0 0 0
184 0 3 0 0 0 0 0
185 0 0 0 0 0 1 0
186 1 0 0 0 0 0 0
187 0 2 0 0 0 0 0
188 0 0 0 0 0 1 0
189 2 0 0 0 0 0 0
190 0 1 0 0 0 0 0
191 0 0 0 0 0 1 0
192 1 0 0 0 0 0 0
193 0 3 0 0 0 0 0
194 0 0 0 0 0 1 0
195 1 0 0 0 0 0 0
196 0 2 0 0 0 0 0
197 0 0 0 0 0 1 0
198 2 0 0 0 0 0 0
199 0 1 0 0 0 0 0
200 0 0 0 0 0 1 0
201 1 0 0 0 0 0 0
202 0 3 0 0 0 0 0
203 0 0 0 0 0 1 0
204 1 0 0 0 0 0 0
205 0 2 0 0 0 0 0
206 0 0 0 0 0 1 0
207 2 0 0 0 0 0 0
208 0 1 0 0 0 0 0
209 0 0 0 0 0 1 0
210 1 0 0 0 0 0 0
211 0 3 0 0 0 0 0
212 0 0 0 0 0 1 0
213 1 0 0 0 0 0 0
214 0 2 0 0 0 0 0
215 0 0 0 0 0 1 0
216 2 0 0 0 0 0 0
217 0 1 0 0 0 0 0
218 0 0 0 0 0 1 0
219 1 0 0 0 0 0 0
220 0 3 0 0 0 0 0
221 0 0 0 0 0 1 0
222 1 0 0 0 0 0 0
223 0 2 0 0 0 0 0
224 0 0 0 0 0 1 0
225 2 0 0 0 0 0 0
226 0 1 0 0 0 0 0
227 0 0 0 0 0 1 0
228 1 0 0 0 0 0 0
229 0 3 0 0 0 0 0
230 0 0 0 0 0 1 0
231 1 0 0 0 0 0 0
232 0 2 0 0 0 0 0
233 0 0 0 0 0 1 0
234 2 0 0 0 0 0 0
235 0 1 0 0 0 0 0
236 0 0 0 0 0 1 0
237 1 0 0 0 0 0 0
238 0 3 0 0 0 0 0
239 0 0 0 0 0 1 0
240 1 0 0 0 0 0 0
241 0 2 0 0 0 0 0
242 0 0 0 0 0 1 0
243 2 0 0 0 0 0 0
244 0 1 0 0 0 0 0
245 0 0 0 0 0 1 0
246 1 0 0 0 0 0 0
247 0 3 0 0 0 0 0
248 0 0 0 0 0 1 0
249 1 0 0 0 0 0 0
250 0 2 0 0 0 0 0
251 0 0 0 0 0 1 0
252 2 0 0 0 0 0 0
253 0 1 0 0 0 0 0
254 0 0 0 0 0 1 0
255 1 0 0 0 0 0 0
256 0 3 0 0 0 0 0
257 0 0 0 0 0 1 0
258 1 0 0 0 0 0 0
259 0 2 0 0 0 0 0
260 0 0 0 0 0 1 0
261 2 0 0 0 0 0 0
262 0 1 0 0 0 0 0
263 0 0 0 0 0 1 0
264 1 0 0 0 0 0 0
265 0 3 0 0 0 0 0
266 0 0 0 0 0 1 0
267 1 0 0 0 0 0 0
268 0 2 0 0 0 0 0
269 0 0 0 0 0 1 0
270 2 0 0 0 0 0 0
271 0 1 0 0 0 0 0
272 0 0 0 0 0 1 0
273 1 0 0 0 0 0 0
274 0 3 0 0 0 0 0
275 0 0 0 0 0 1 0
276 1 0 0 0 0 0 0
277 0 2 0 0 0 0 0
278 0 0 0 0 0 1 0
279 2 0 0 0 0 0 0
280 0 1 0 0 0 0 0
281 0 0 0 0 0 1 0
282 1 0 0 0 0 0 0
283 0 3 0 0 0 0 0
284 0 0 0 0 0 1 0
285 1 0 0 0 0 0 0
286 0 2 0 0 0 0 0
287 0 0 0 0 0 1 0
288 2 0 0 0 0 0 0
289 0 1 0 0 0 0 0
290 0 0 0 0 0 1 0
291 1 0 0 0 0 0 0
292 0 3 0 0 0 0 0
293 0 0 0 0 0 1 0
294 1 0 0 0 0 0 0
295 0 2 0 0 0 0 0
296 0 0 0 0 0 1 0
297 2 0 0 0 0 0 0
298 0 1 0 0 0 0 0
299 0 0 0 0 0 1 0
300 1 0 0 0 0 0 0
301 0 3 0 0 0 0 0
302 0 0 0 0 0 1 0
303 1 0 0 0 0 0 0
304 0 2 0 0 0 0 0
305 0 0 0 0 0 1 0
306 2 0 0 0 0 0 0
307 0 1 0 0 0 0 0
308 0 0 0 0 0 1 0
309 1 0 0 0 0 0 0
310 0 3 0 0 0 0 0
311 0 0 0 0 0 1 0
312 1 0 0 0 0 0 0
313 0 2 0 0 0 0 0
314 0 0 0 0 0 1 0
315 2 0 0 0 0 0 0
316 0 1 0 0 0 0 0
317 0 0 0 0 0 1 0
318 1 0 0 0 0 0 0
319 0 3 0 0 0 0 0
320 0 0 0 0 0 1 0
321 1 0 0 0 0 0 0
322 0 2 0 0 0 0 0
323 0 0 0 0 0 1 0
324 2 0 0 0 0 0 0
325 0 1 0 0 0 0 0
326 0 0 0 0 0 1 0
327 1 0 0 0 0 0 0
328 0 3 0 0 0 0 0
329 0 0 0 0 0 1 0
330 1 0 0 0 0 0 0
331 0 2 0 0 0 0 0
332 0 0 0 0 0 1 0
333 2 0 0 0 0 0 0
334 0 1 0 0 0 0 0
335 0 0 0 0 0 1 0
336 1 0 0 0 0 0 0
337 0 3 0 0 0 0 0
338 0 0 0 0 0 1 0
339 1 0 0 0 0 0 0
340 0 2 0 0 0 0 0
341 0 0 0 0 0 1 0
342 2 0 0 0 0 0 0
343 0 1 0 0 0 0 0
344 0 0 0 0 0 1 0
345 1 0 0 0 0 0 0
346 0 3 0 0 0 0 0
347 0 0 0 0 0 1 0
348 1 0 0 0 0 0 0
349 0 2 0 0 0 0 0
350 0 0 0 0 0 1 0
351 2 0 0 0 0 0 0
352 0 1 0 0 0 0 0
353 0 0 0 0 0 1 0
354 1 0 0 0 0 0 0
355 0 3 0 0 0 0 0
356 0 0 0 0 0 1 0
357 1 0 0 0 0 0 0
358 0 2 0 0 0 0 0
359 0 0 0 0 0 1 0
360 2 0 0 0 0 0 0
361 0 1 0 0 0 0 0
362 0 0 0 0 0 1 0
363 1 0 0 0 0 0 0
364 0 3 0 0 0 0 0
365 0 0 0 0 0 1 0
366 1 0 0 0 0 0 0
367 0 2 0 0 0 0 0
368 0 0 0 0 0 1 0
369 2 0 0 0 0 0 0
370 0 1 0 0 0 0 0
371 0 0 0 0 0 1 0
372 1 0 0 0 0 0 0
373 0 3 0 0 0 0 0
374 0 0 0 0 0 1 0
375 1 0 0 0 0 0 0
376 0 2 0 0 0 0 0
377 0 0 0 0 0 1 0
378 2 0 0 0 0 0 0
379 0 1 0 0 0 0 0
380 0 0 0 0 0 1 0
381 1 0 0 0 0 0 0
382 0 3 0 0 0 0 0
383 0 0 0 0 0 1 0
384 1 0 0 0 0 0 0
385 0 2 0 0 0 0 0
386 0 0 0 0 0 1 0
387 2 0 0 0 0 0 0
388 0 1 0 0 0 0 0
389 0 0 0 0 0 1 0
390 1 0 0 0 0 0 0
391 0 3 0 0 0 0 0
392 0 0 0 0 0 1 0
393 1 0 0 0 0 0 0
394 0 2 0 0 0 0 0
395 0 0 0 0 0 1 0
396 2 0 0 0 0 0 0
397 0 1 0 0 0 0 0
398 0 0 0 0 0 1 0
399 1 0 0 0 0 0 0
400 0 3 0 0 0 0 0
401 0 0 0 0 0 1 0
402 1 0 0 0 0 0 0
403 0 2 0 0 0 0 0
404 0 0 0 0 0 1 0
405 2 0 0 0 0 0 0
406 0 1 0 0 0 0 0
407 0 0 0 0 0 1 0
408 1 0 0 0 0 0 0
409 0 3 0 0 0 0 0
410 0 0 0 0 0 1 0
411 1 0 0 0 0 0 0
412 0 2 0 0 0 0 0
413 0 0 0 0 0 1 0
414 2 0 0 0 0 0 0
415 0 1 0 0 0 0 0
416 0 0 0 0 0 1 0
417 1 0 0 0 0 0 0
418 0 3 0 0 0 0 0
419 0 0 0 0 0 1 0
420 1 0 0 0 0 0 0
421 0 2 0 0 0 0 0
422 0 0 0 0 0 1 0
423 2 0 0 0 0 0 0
424 0 1 0 0 0 0 0
425 0 0 0 0 0 1 0
426 1 0 0 0 0 0 0
427 0 3 0 0 0 0 0
428 0 0 0 0 0 1 0
429 1 0 0 0 0 0 0
430 0 2 0 0 0 0 0
431 0 0 0 0 0 1 0
432 2 0 0 0 0 0 0
433 0 1 0 0 0 0 0
434 0 0 0 0 0 1 0
435 1 0 0 0 0 0 0
436 0 3 0 0 0 0 0
437 0 0 0 0 0 1 0
438 1 0 0 0 0 0 0
439 0 2 0 0 0 0 0
440 0 0 0 0 0 1 0
441 2 0 0 0 0 0 0
442 0 1 0 0 0 0 0
443 0 0 0 0 0 1 0
444 1 0 0 0 0 0 0
445 0 3 0 0 0 0 0
446 0 0 0 0 0 1 0
447 1 0 0 0 0 0 0
448 0 2 0 0 0 0 0
449 0 0 0 0 0 1 0
450 2 0 0 0 0 0 0
451 0 1 0 0 0 0 0
452 0 0 0 0 0 1 0
453 1 0 0 0 0 0 0
454 0 3 0 0 0 0 0
455 0 0 0 0 0 1 0
456 1 0 0 0 0 0 0
457 0 2 0 0 0 0 0
458 0 0 0 0 0 1 0
459 2 0 0 0 0 0 0
460 0 1 0 0 0 0 0
461 0 0 0 0 0 1 0
462 1 0 0 0 0 0 0
463 0 3 0 0 0 0 0
464 0 0 0 0 0 1 0
465 1 0 0 0 0 0 0
466 0 2 0 0 0 0 0
467 0 0 0 0 0 1 0
468 2 0 0 0 0 0 0
469 0 1 0 0 0 0 0
470 0 0 0 0 0 1 0
471 1 0 0 0 0 0 0
472 0 3 0 0 0 0 0
473 0 0 0 0 0 1 0
474 1 0 0 0 0 0 0
475 0 2 0 0 0 0 0
476 0 0 0 0 0 1 0
477 2 0 0 0 0 0 0
478 0 1 0 0 0 0 0
479 0 0 0 0 0 1 0
480 1 0 0 0 0 0 0
481 0 3 0 0 0 0 0
482 0 0 0 0 0 1 0
483 1 0 0 0 0 0 0
484 0 2 0 0 0 0 0
485 0 0 0 0 0 1 0
486 2 0 0 0 0 0 0
487 0 1 0 0 0 0 0
488 0 0 0 0 0 1 0
489 1 0 0 0 0 0 0
490 0 3 0 0 0 0 0
491 0 0 0 0 0 1 0
492 1 0 0 0 0 0 0
493 0 2 0 0 0 0 0
494 0 0 0 0 0 1 0
495 2 0 0 0 0 0 0
496 0 1 0 0 0 0 0
497 0 0 0 0 0 1 0
498 1 0 0 0 0 0 0
499 0 3 0 0 0 0 0
500 0 0 0 0 0 1 0
501 1 0 0 0 0 0 0
502 0 2 0 0 0 0 0
503 0 0 0 0 0 1 0
504 2 0 0 0 0 0 0
505 0 1 0 0 0 0 0
506 0 0 0 0 0 1 0
507 1 0 0 0 0 0 0
508 0 3 0 0 0 0 0
509 0 0 0 0 0 1 0
510 1 0 0 0 0 0 0
511 0 2 0 0 0 0 0
512 0 0 0 0 0 1 0
513 2 0 0 0 0 0 0
514 0 1 0 0 0 0 0
515 0 0 0 0 0 1 0
516 1 0 0 0 0 0 0
517 0 3 0 0 0 0 0
518 0 0 0 0 0 1 0
519 1 0 0 0 0 0 0
520 0 2 0 0 0 0 0
521 0 0 0 0 0 1 0
522 2 0 0 0 0 0 0
523 0 1 0 0 0 0 0
524 0 0 0 0 0 1 0
525 1 0 0 0 0 0 0
526 0 3 0 0 0 0 0
527 0 0 0 0 0 1 0
528 1 0 0 0 0 0 0
529 0 2 0 0 0 0 0
530 0 0 0 0 0 1 0
531 2 0 0 0 0 0 0
532 0 1 0 0 0 0 0
533 0 0 0 0 0 1 0
534 1 0 0 0 0 0 0
535 0 3 0 0 0 0 0
536 0 0 0 0 0 1 0
537 1 0 0 0 0 0 0
538 0 2 0 0 0 0 0
539 0 0 0 0 0 1 0
540 2 0 0 0 0 0 0
541 0 1 0 0 0 0 0
542 0 0 0 0 0 1 0
543 1 0 0 0 0 0 0
544 0 3 0 0 0 0 0
545 0 0 0 0 0 1 0
546 1 0 0 0 0 0 0
547 0 2 0 0 0 0 0
548 0 0 0 0 0 1 0
549 2 0 0 0 0 0 0
550 0 1 0 0 0 0 0
551 0 0 0 0 0 1 0
552 1 0 0 0 0 0 0
553 0 3 0 0 0 0 0
[RF]
1      31.27518 1 2 0 0 0
2      278.0016 1 2 0 0 0
3      0.0 1 2 0 0 0

# Format of ADC events:
# id num dwell delay freq phase
# ..  ..    ns    us   Hz   rad
[ADC]
1 1 1000000000 0 0 0

# Format of delays:
# id delay (us)
[DELAYS]
1 200000
2 1599988

# Sequence Shapes
[SHAPES]

shape_id 1
num_samples 2000
0
0
0
1e-07
1e-07
1
2e-07
4e-07
4e-07
0
5e-07
7e-07
8e-07
1e-06
1.2e-06
1.3e-06
1.6e-06
1.8e-06
2e-06
2.3e-06
2.5e-06
2.8e-06
3.1e-06
3.4e-06
3.8e-06
4e-06
4.4e-06
4.8e-06
5.1e-06
5.5e-06
5.9e-06
6.3e-06
6.7e-06
7.2e-06
7.6e-06
8e-06
8.5e-06
8.9e-06
9.5e-06
9.9e-06
1.04e-05
1.09e-05
1.14e-05
1.19e-05
1.25e-05
1.29e-05
1.36e-05
1.4e-05
1.46e-05
1.51e-05
1.57e-05
1.63e-05
1.68e-05
1.74e-05
1.79e-05
1.85e-05
1.91e-05
1.96e-05
2.02e-05
2.08e-05
2.14e-05
2.19e-05
2.24e-05
2.3e-05
2.36e-05
2.41e-05
2.47e-05
2.52e-05
2.58e-05
2.62e-05
2.68e-05
2.74e-05
2.78e-05
2.83e-05
2.88e-05
2.93e-05
2.97e-05
3.02e-05
3.07e-05
3.11e-05
3.15e-05
3.19e-05
3.23e-05
3.27e-05
3.3e-05
3.34e-05
3.37e-05
3.4e-05
3.44e-05
3.46e-05
3.48e-05
3.51e-05
3.53e-05
3.55e-05
3.57e-05
3.58e-05
3.6e-05
3.6e-05
0
3.62e-05
3.62e-05
0
3.63e-05
3.62e-05
3.63e-05
3.62e-05
3.61e-05
3.61e-05
0
3.59e-05
3.58e-05
3.56e-05
3.53e-05
3.52e-05
3.49e-05
3.46e-05
3.42e-05
3.39e-05
3.35e-05
3.31e-05
3.27e-05
3.21e-05
3.17e-05
3.11e-05
3.05e-05
2.99e-05
2.92e-05
2.85e-05
2.79e-05
2.7e-05
2.63e-05
2.55e-05
2.46e-05
2.37e-05
2.28e-05
2.18e-05
2.08e-05
1.97e-05
1.87e-05
1.76e-05
1.65e-05
1.52e-05
1.41e-05
1.28e-05
1.15e-05
1.01e-05
8.8e-06
7.5e-06
6e-06
4.5e-06
3e-06
1.5e-06
-1e-07
-1.7e-06
-3.4e-06
-5e-06
-6.7e-06
-8.5e-06
-1.02e-05
-1.21e-05
-1.39e-05
-1.57e-05
-1.77e-05
-1.96e-05
-2.16e-05
-2.36e-05
-2.56e-05
-2.77e-05
-2.97e-05
-3.19e-05
-3.4e-05
-3.62e-05
-3.84e-05
-4.06e-05
-4.28e-05
-4.51e-05
-4.74e-05
-4.98e-05
-5.21e-05
-5.44e-05
-5.69e-05
-5.92e-05
-6.17e-05
-6.41e-05
-6.65e-05
-6.91e-05
-7.15e-05
-7.41e-05
-7.66e-05
-7.91e-05
-8.16e-05
-8.43e-05
-8.67e-05
-8.94e-05
-9.2e-05
-9.45e-05
-9.72e-05
-9.98e-05
-0.0001023
-0.000105
-0.0001076
-0.0001103
-0.0001128
-0.0001154
-0.0001181
0.0001207
0.0001232
0.0001259
0.0001284
0.0001311
0.0001336
0.0001361
0.0001387
0.0001412
0.0001438
0.0001462
0.0001487
0.0001512
0.0001536
0.000156
0.0001585
0.0001608
0.0001631
0.0001654
0.0001678
0.00017
0.0001722
0.0001744
0.0001766
0.0001787
0.0001807
0.0001829
0.0001848
0.0001868
0.0001887
0.0001906
0.0001924
0.0001942
0.000196
0.0001976
0.0001993
0.0002008
0.0002024
0.0002039
0.0002053
0.0002066
0.000208
0.0002092
0.0002104
0.0002115
0.0002125
0.0002135
0.0002145
0.0002153
0.0002161
0.0002168
0.0002174
0.000218
0.0002185
0.000219
0.0002192
0.0002195
0.0002197
0.0002199
0.0002198
0.0002197
0.0002197
0
0.0002194
0.0002191
0.0002186
0.0002182
0.0002177
0.0002169
0.0002162
0.0002154
0.0002144
0.0002133
0.0002123
0.000211
0.0002098
0.0002083
0.0002068
0.0002052
0.0002035
0.0002016
0.0001998
0.0001978
0.0001957
0.0001935
0.0001912
0.0001888
0.0001863
0.0001836
0.000181
0.0001781
0.0001753
0.0001722
0.0001691
0.0001658
0.0001625
0.0001591
0.0001556
0.0001519
0.0001482
0.0001443
0.0001403
0.0001363
0.0001322
0.0001278
0.0001235
0.0001191
0.0001144
0.0001098
0.0001051
0.0001001
9.52e-05
9e-05
8.5e-05
7.96e-05
7.43e-05
6.87e-05
6.33e-05
5.75e-05
5.19e-05
4.59e-05
4.01e-05
3.39e-05
2.79e-05
2.17e-05
1.53e-05
9e-06
2.4e-06
-4.1e-06
-1.07e-05
-1.74e-05
-2.43e-05
-3.12e-05
-3.81e-05
-4.52e-05
-5.23e-05
-5.94e-05
-6.68e-05
-7.41e-05
-8.15e-05
-8.89e-05
-9.65e-05
-0.0001041
-0.0001118
-0.0001194
-0.0001273
-0.0001351
-0.000143
-0.0001509
-0.0001589
-0.0001669
-0.000175
-0.0001832
-0.0001913
-0.0001995
-0.0002078
-0.000216
-0.0002243
-0.0002327
-0.000241
-0.0002494
-0.0002578
-0.0002662
-0.0002747
-0.0002831
-0.0002916
-0.0003001
-0.0003085
-0.0003171
-0.0003255
-0.000334
-0.0003424
-0.0003509
-0.0003594
-0.0003678
-0.0003763
-0.0003846
-0.000393
-0.0004014
-0.0004097
-0.000418
-0.0004262
-0.0004345
-0.0004426
-0.0004508
-0.0004589
-0.0004669
-0.0004749
-0.0004828
-0.0004907
-0.0004985
-0.0005062
-0.0005139
-0.0005215
-0.000529
-0.0005364
-0.0005438
-0.0005511
-0.0005583
-0.0005653
-0.0005724
0.0005793
0.000586
0.0005927
0.0005994
0.0006058
0.0006121
0.0006184
0.0006245
0.0006306
0.0006363
0.0006422
0.0006477
0.0006532
0.0006585
0.0006637
0.0006688
0.0006736
0.0006784
0.000683
0.0006874
0.0006917
0.0006957
0.0006997
0.0007035
0.000707
0.0007105
0.0007137
0.0007167
0.0007197
0.0007223
0.0007248
0.0007271
0.0007292
0.0007311
0.0007329
0.0007343
0.0007357
0.0007367
0.0007377
0.0007383
0.0007387
0.000739
0.0007391
0.0007388
0.0007384
0.0007377
0.0007369
0.0007358
0.0007345
0.0007328
0.0007311
0.000729
0.0007268
0.0007242
0.0007215
0.0007185
0.0007152
0.0007117
0.000708
0.000704
0.0006997
0.0006953
0.0006905
0.0006855
0.0006803
0.0006748
0.000669
0.0006629
0.0006567
0.0006502
0.0006434
0.0006363
0.0006291
0.0006214
0.0006136
0.0006056
0.0005972
0.0005885
0.0005798
0.0005705
0.0005612
0.0005516
0.0005416
0.0005315
0.0005211
0.0005104
0.0004994
0.0004883
0.0004768
0.0004652
0.0004531
0.000441
0.0004285
0.0004159
0.0004028
0.0003897
0.0003763
0.0003625
0.0003487
0.0003345
0.0003201
0.0003054
0.0002906
0.0002755
0.0002601
0.0002446
0.0002289
0.0002128
0.0001966
0.0001802
0.0001635
0.0001467
0.0001296
0.0001123
9.48e-05
7.72e-05
5.93e-05
4.13e-05
2.3e-05
4.5e-06
-1.4e-05
-3.29e-05
-5.18e-05
-7.09e-05
-9.03e-05
-0.0001097
-0.0001294
-0.0001491
-0.000169
-0.0001892
-0.0002093
-0.0002297
-0.0002502
-0.0002708
-0.0002915
-0.0003124
-0.0003333
-0.0003544
-0.0003756
-0.0003969
-0.0004182
-0.0004397
-0.0004612
-0.0004829
-0.0005045
-0.0005263
-0.0005481
-0.0005699
-0.0005919
-0.0006139
-0.0006358
-0.0006579
-0.0006799
-0.0007021
-0.0007241
-0.0007462
-0.0007683
-0.0007905
-0.0008125
-0.0008346
-0.0008566
-0.0008787
-0.0009007
-0.0009226
-0.0009445
-0.0009664
-0.0009881
-0.0010099
-0.0010315
-0.0010531
-0.0010745
-0.0010959
-0.0011172
-0.0011384
-0.0011594
-0.0011804
-0.0012012
-0.0012218
-0.0012424
-0.0012627
-0.001283
-0.001303
-0.001323
-0.0013426
-0.0013622
-0.0013815
-0.0014007
-0.0014195
-0.0014384
-0.0014568
-0.0014751
-0.0014932
-0.001511
-0.0015285
-0.0015459
-0.0015629
-0.0015797
-0.0015963
-0.0016124
-0.0016284
0.001644
0.0016594
0.0016745
0.0016891
0.0017036
0.0017177
0.0017313
0.0017448
0.0017579
0.0017705
0.0017829
0.0017948
0.0018065
0.0018176
0.0018285
0.0018389
0.001849
0.0018586
0.0018678
0.0018766
0.0018849
0.001893
0.0019004
0.0019075
0.0019142
0.0019203
0.001926
0.0019312
0.0019361
0.0019403
0.0019442
0.0019475
0.0019504
0.0019527
0.0019546
0.0019559
0.0019568
0.001957
0.0019569
0.0019562
0.0019549
0.0019531
0.0019508
0.001948
0.0019445
0.0019406
0.0019361
0.001931
0.0019254
0.0019192
0.0019124
0.0019051
0.0018972
0.0018888
0.0018797
0.00187
0.0018598
0.001849
0.0018376
0.0018256
0.0018131
0.0017998
0.001786
0.0017717
0.0017567
0.001741
0.0017249
0.0017081
0.0016907
0.0016726
0.001654
0.0016348
0.0016149
0.0015945
0.0015733
0.0015517
0.0015294
0.0015065
0.0014829
0.0014588
0.0014341
0.0014087
0.0013828
0.0013561
0.001329
0.0013012
0.0012728
0.0012438
0.0012141
0.001184
0.0011532
0.0011218
0.0010898
0.0010572
0.0010241
0.0009903
0.0009559
0.0009211
0.0008855
0.0008494
0.0008129
0.0007756
0.0007378
0.0006995
0.0006607
0.0006211
0.0005812
0.0005407
0.0004996
0.000458
0.0004159
0.0003733
0.0003301
0.0002864
0.0002422
0.0001975
0.0001524
0.0001066
6.06e-05
1.39e-05
-3.32e-05
-8.08e-05
-0.0001288
-0.0001772
-0.0002262
-0.0002756
-0.0003253
-0.0003755
-0.0004262
-0.0004772
-0.0005286
-0.0005804
-0.0006327
-0.0006852
-0.0007382
-0.0007915
-0.0008451
-0.0008992
-0.0009535
-0.0010081
-0.0010632
-0.0011184
-0.001174
-0.0012299
-0.001286
-0.0013425
-0.0013991
-0.0014561
-0.0015132
-0.0015707
-0.0016283
-0.0016861
-0.0017442
-0.0018024
-0.0018608
-0.0019194
-0.0019781
-0.0020371
-0.002096
-0.0021552
-0.0022145
-0.0022739
-0.0023333
-0.0023929
-0.0024526
-0.0025122
-0.0025719
-0.0026318
-0.0026915
-0.0027514
-0.0028112
-0.0028711
-0.0029308
-0.0029906
-0.0030503
-0.00311
-0.0031697
-0.0032291
-0.0032887
-0.0033479
-0.0034072
-0.0034663
-0.0035253
-0.0035841
-0.0036427
-0.0037013
-0.0037595
-0.0038177
-0.0038756
-0.0039332
-0.0039907
-0.0040479
-0.0041049
-0.0041615
-0.0042179
-0.004274
-0.0043298
-0.0043853
-0.0044404
-0.0044953
0.0045497
0.0046038
0.0046575
0.0047109
0.0047638
0.0048162
0.0048684
0.0049201
0.0049712
0.005022
0.0050723
0.005122
0.0051714
0.0052202
0.0052684
0.0053162
0.0053634
0.0054101
0.0054562
0.0055017
0.0055467
0.005591
0.0056348
0.0056779
0.0057205
0.0057623
0.0058035
0.0058442
0.005884
0.0059233
0.0059618
0.0059996
0.0060368
0.0060732
0.0061089
0.0061439
0.0061781
0.0062116
0.0062443
0.0062762
0.0063074
0.0063377
0.0063673
0.006396
0.006424
0.0064512
0.0064774
0.0065029
0.0065274
0.0065513
0.0065741
0.0065962
0.0066173
0.0066376
0.0066569
0.0066755
0.006693
0.0067097
0.0067255
0.0067403
0.0067542
0.0067672
0.0067792
0.0067903
0.0068005
0.0068097
0.0068179
0.0068252
0.0068316
0.0068368
0.0068412
0.0068447
0.006847
0.0068484
0.0068489
0.0068483
0.0068467
0.0068442
0.0068406
0.0068361
0.0068305
0.0068239
0.0068163
0.0068077
0.0067982
0.0067875
0.0067758
0.0067633
0.0067495
0.0067349
0.0067191
0.0067025
0.0066847
0.006666
0.0066461
0.0066255
0.0066036
0.0065808
0.006557
0.0065322
0.0065063
0.0064795
0.0064517
0.0064228
0.0063929
0.0063622
0.0063302
0.0062975
0.0062637
0.0062288
0.0061931
0.0061564
0.0061186
0.00608
0.0060403
0.0059997
0.0059582
0.0059156
0.0058722
0.0058279
0.0057825
0.0057363
0.0056892
0.005641
0.0055922
0.0055422
0.0054915
0.0054399
0.0053873
0.0053339
0.0052797
0.0052246
0.0051687
0.0051118
0.0050542
0.0049958
0.0049365
0.0048764
0.0048156
0.0047539
0.0046915
0.0046284
0.0045643
0.0044997
0.0044343
0.004368
0.0043012
0.0042337
0.0041653
0.0040963
0.0040267
0.0039564
0.0038854
0.0038138
0.0037416
0.0036687
0.0035953
0.0035211
0.0034466
0.0033713
0.0032955
0.0032192
0.0031424
0.0030649
0.0029871
0.0029086
0.0028298
0.0027505
0.0026706
0.0025904
0.0025097
0.0024285
0.0023471
0.0022652
0.0021828
0.0021003
0.0020172
0.0019339
0.0018502
0.0017663
0.0016819
0.0015975
0.0015126
0.0014275
0.0013423
0.0012566
0.001171
0.001085
0.0009989
0.0009125
0.0008262
0.0007395
0.0006528
0.000566
0.0004791
0.0003921
0.000305
0.0002179
0.0001308
4.36e-05
-4.36e-05
-0.0001308
-0.0002179
-0.000305
-0.0003921
-0.0004791
-0.000566
-0.0006528
-0.0007395
-0.0008262
-0.0009125
-0.0009989
-0.001085
-0.001171
-0.0012566
-0.0013423
-0.0014275
-0.0015126
-0.0015975
-0.0016819
-0.0017663
-0.0018502
-0.0019339
-0.0020172
-0.0021003
-0.0021828
-0.0022652
-0.0023471
-0.0024285
-0.0025097
-0.0025904
-0.0026706
-0.0027505
-0.0028298
-0.0029086
-0.0029871
-0.0030649
-0.0031424
-0.0032192
-0.0032955
-0.0033713
-0.0034466
-0.0035211
-0.0035953
-0.0036687
-0.0037416
-0.0038138
-0.0038854
-0.0039564
-0.0040267
-0.0040963
-0.0041653
-0.0042337
-0.0043012
-0.004368
-0.0044343
-0.0044997
-0.0045643
-0.0046284
-0.0046915
-0.0047539
-0.0048156
-0.0048764
-0.0049365
-0.0049958
-0.0050542
-0.0051118
-0.0051687
-0.0052246
-0.0052797
-0.0053339
-0.0053873
-0.0054399
-0.0054915
-0.0055422
-0.0055922
-0.005641
-0.0056892
-0.0057363
-0.0057825
-0.0058279
-0.0058722
-0.0059156
-0.0059582
-0.0059997
-0.0060403
-0.00608
-0.0061186
-0.0061564
-0.0061931
-0.0062288
-0.0062637
-0.0062975
-0.0063302
-0.0063622
-0.0063929
-0.0064228
-0.0064517
-0.0064795
-0.0065063
-0.0065322
-0.006557
-0.0065808
-0.0066036
-0.0066255
-0.0066461
-0.006666
-0.0066847
-0.0067025
-0.0067191
-0.0067349
-0.0067495
-0.0067633
-0.0067758
-0.0067875
-0.0067982
-0.0068077
-0.0068163
-0.0068239
-0.0068305
-0.0068361
-0.0068406
-0.0068442
-0.0068467
-0.0068483
-0.0068489
-0.0068484
-0.006847
-0.0068447
-0.0068412
-0.0068368
-0.0068316
-0.0068252
-0.0068179
-0.0068097
-0.0068005
-0.0067903
-0.0067792
-0.0067672
-0.0067542
-0.0067403
-0.0067255
-0.0067097
-0.006693
-0.0066755
-0.0066569
-0.0066376
-0.0066173
-0.0065962
-0.0065741
-0.0065513
-0.0065274
-0.0065029
-0.0064774
-0.0064512
-0.006424
-0.006396
-0.0063673
-0.0063377
-0.0063074
-0.0062762
-0.0062443
-0.0062116
-0.0061781
-0.0061439
-0.0061089
-0.0060732
-0.0060368
-0.0059996
-0.0059618
-0.0059233
-0.005884
-0.0058442
-0.0058035
-0.0057623
-0.0057205
-0.0056779
-0.0056348
-0.005591
-0.0055467
-0.0055017
-0.0054562
-0.0054101
-0.0053634
-0.0053162
-0.0052684
-0.0052202
-0.0051714
-0.005122
-0.0050723
-0.005022
-0.0049712
-0.0049201
-0.0048684
-0.0048162
-0.0047638
-0.0047109
-0.0046575
-0.0046038
-0.0045497
0.0044953
0.0044404
0.0043853
0.0043298
0.004274
0.0042179
0.0041615
0.0041049
0.0040479
0.0039907
0.0039332
0.0038756
0.0038177
0.0037595
0.0037013
0.0036427
0.0035841
0.0035253
0.0034663
0.0034072
0.0033479
0.0032887
0.0032291
0.0031697
0.00311
0.0030503
0.0029906
0.0029308
0.0028711
0.0028112
0.0027514
0.0026915
0.0026318
0.0025719
0.0025122
0.0024526
0.0023929
0.0023333
0.0022739
0.0022145
0.0021552
0.002096
0.0020371
0.0019781
0.0019194
0.0018608
0.0018024
0.0017442
0.0016861
0.0016283
0.0015707
0.0015132
0.0014561
0.0013991
0.0013425
0.001286
0.0012299
0.001174
0.0011184
0.0010632
0.0010081
0.0009535
0.0008992
0.0008451
0.0007915
0.0007382
0.0006852
0.0006327
0.0005804
0.0005286
0.0004772
0.0004262
0.0003755
0.0003253
0.0002756
0.0002262
0.0001772
0.0001288
8.08e-05
3.32e-05
-1.39e-05
-6.06e-05
-0.0001066
-0.0001524
-0.0001975
-0.0002422
-0.0002864
-0.0003301
-0.0003733
-0.0004159
-0.000458
-0.0004996
-0.0005407
-0.0005812
-0.0006211
-0.0006607
-0.0006995
-0.0007378
-0.0007756
-0.0008129
-0.0008494
-0.0008855
-0.0009211
-0.0009559
-0.0009903
-0.0010241
-0.0010572
-0.0010898
-0.0011218
-0.0011532
-0.001184
-0.0012141
-0.0012438
-0.0012728
-0.0013012
-0.001329
-0.0013561
-0.0013828
-0.0014087
-0.0014341
-0.0014588
-0.0014829
-0.0015065
-0.0015294
-0.0015517
-0.0015733
-0.0015945
-0.0016149
-0.0016348
-0.001654
-0.0016726
-0.0016907
-0.0017081
-0.0017249
-0.001741
-0.0017567
-0.0017717
-0.001786
-0.0017998
-0.0018131
-0.0018256
-0.0018376
-0.001849
-0.0018598
-0.00187
-0.0018797
-0.0018888
-0.0018972
-0.0019051
-0.0019124
-0.0019192
-0.0019254
-0.001931
-0.0019361
-0.0019406
-0.0019445
-0.001948
-0.0019508
-0.0019531
-0.0019549
-0.0019562
-0.0019569
-0.001957
-0.0019568
-0.0019559
-0.0019546
-0.0019527
-0.0019504
-0.0019475
-0.0019442
-0.0019403
-0.0019361
-0.0019312
-0.001926
-0.0019203
-0.0019142
-0.0019075
-0.0019004
-0.001893
-0.0018849
-0.0018766
-0.0018678
-0.0018586
-0.001849
-0.0018389
-0.0018285
-0.0018176
-0.0018065
-0.0017948
-0.0017829
-0.0017705
-0.0017579
-0.0017448
-0.0017313
-0.0017177
-0.0017036
-0.0016891
-0.0016745
-0.0016594
-0.001644
0.0016284
0.0016124
0.0015963
0.0015797
0.0015629
0.0015459
0.0015285
0.001511
0.0014932
0.0014751
0.0014568
0.0014384
0.0014195
0.0014007
0.0013815
0.0013622
0.0013426
0.001323
0.001303
0.001283
0.0012627
0.0012424
0.0012218
0.0012012
0.0011804
0.0011594
0.0011384
0.0011172
0.0010959
0.0010745
0.0010531
0.0010315
0.0010099
0.0009881
0.0009664
0.0009445
0.0009226
0.0009007
0.0008787
0.0008566
0.0008346
0.0008125
0.0007905
0.0007683
0.0007462
0.0007241
0.0007021
0.0006799
0.0006579
0.0006358
0.0006139
0.0005919
0.0005699
0.0005481
0.0005263
0.0005045
0.0004829
0.0004612
0.0004397
0.0004182
0.0003969
0.0003756
0.0003544
0.0003333
0.0003124
0.0002915
0.0002708
0.0002502
0.0002297
0.0002093
0.0001892
0.000169
0.0001491
0.0001294
0.0001097
9.03e-05
7.09e-05
5.18e-05
3.29e-05
1.4e-05
-4.5e-06
-2.3e-05
-4.13e-05
-5.93e-05
-7.72e-05
-9.48e-05
-0.0001123
-0.0001296
-0.0001467
-0.0001635
-0.0001802
-0.0001966
-0.0002128
-0.0002289
-0.0002446
-0.0002601
-0.0002755
-0.0002906
-0.0003054
-0.0003201
-0.0003345
-0.0003487
-0.0003625
-0.0003763
-0.0003897
-0.0004028
-0.0004159
-0.0004285
-0.000441
-0.0004531
-0.0004652
-0.0004768
-0.0004883
-0.0004994
-0.0005104
-0.0005211
-0.0005315
-0.0005416
-0.0005516
-0.0005612
-0.0005705
-0.0005798
-0.0005885
-0.0005972
-0.0006056
-0.0006136
-0.0006214
-0.0006291
-0.0006363
-0.0006434
-0.0006502
-0.0006567
-0.0006629
-0.000669
-0.0006748
-0.0006803
-0.0006855
-0.0006905
-0.0006953
-0.0006997
-0.000704
-0.000708
-0.0007117
-0.0007152
-0.0007185
-0.0007215
-0.0007242
-0.0007268
-0.000729
-0.0007311
-0.0007328
-0.0007345
-0.0007358
-0.0007369
-0.0007377
-0.0007384
-0.0007388
-0.0007391
-0.000739
-0.0007387
-0.0007383
-0.0007377
-0.0007367
-0.0007357
-0.0007343
-0.0007329
-0.0007311
-0.0007292
-0.0007271
-0.0007248
-0.0007223
-0.0007197
-0.0007167
-0.0007137
-0.0007105
-0.000707
-0.0007035
-0.0006997
-0.0006957
-0.0006917
-0.0006874
-0.000683
-0.0006784
-0.0006736
-0.0006688
-0.0006637
-0.0006585
-0.0006532
-0.0006477
-0.0006422
-0.0006363
-0.0006306
-0.0006245
-0.0006184
-0.0006121
-0.0006058
-0.0005994
-0.0005927
-0.000586
-0.0005793
0.0005724
0.0005653
0.0005583
0.0005511
0.0005438
0.0005364
0.000529
0.0005215
0.0005139
0.0005062
0.0004985
0.0004907
0.0004828
0.0004749
0.0004669
0.0004589
0.0004508
0.0004426
0.0004345
0.0004262
0.000418
0.0004097
0.0004014
0.000393
0.0003846
0.0003763
0.0003678
0.0003594
0.0003509
0.0003424
0.000334
0.0003255
0.0003171
0.0003085
0.0003001
0.0002916
0.0002831
0.0002747
0.0002662
0.0002578
0.0002494
0.000241
0.0002327
0.0002243
0.000216
0.0002078
0.0001995
0.0001913
0.0001832
0.000175
0.0001669
0.0001589
0.0001509
0.000143
0.0001351
0.0001273
0.0001194
0.0001118
0.0001041
9.65e-05
8.89e-05
8.15e-05
7.41e-05
6.68e-05
5.94e-05
5.23e-05
4.52e-05
3.81e-05
3.12e-05
2.43e-05
1.74e-05
1.07e-05
4.1e-06
-2.4e-06
-9e-06
-1.53e-05
-2.17e-05
-2.79e-05
-3.39e-05
-4.01e-05
-4.59e-05
-5.19e-05
-5.75e-05
-6.33e-05
-6.87e-05
-7.43e-05
-7.96e-05
-8.5e-05
-9e-05
-9.52e-05
-0.0001001
-0.0001051
-0.0001098
-0.0001144
-0.0001191
-0.0001235
-0.0001278
-0.0001322
-0.0001363
-0.0001403
-0.0001443
-0.0001482
-0.0001519
-0.0001556
-0.0001591
-0.0001625
-0.0001658
-0.0001691
-0.0001722
-0.0001753
-0.0001781
-0.000181
-0.0001836
-0.0001863
-0.0001888
-0.0001912
-0.0001935
-0.0001957
-0.0001978
-0.0001998
-0.0002016
-0.0002035
-0.0002052
-0.0002068
-0.0002083
-0.0002098
-0.000211
-0.0002123
-0.0002133
-0.0002144
-0.0002154
-0.0002162
-0.0002169
-0.0002177
-0.0002182
-0.0002186
-0.0002191
-0.0002194
-0.0002197
-0.0002197
0
-0.0002198
-0.0002199
-0.0002197
-0.0002195
-0.0002192
-0.000219
-0.0002185
-0.000218
-0.0002174
-0.0002168
-0.0002161
-0.0002153
-0.0002145
-0.0002135
-0.0002125
-0.0002115
-0.0002104
-0.0002092
-0.000208
-0.0002066
-0.0002053
-0.0002039
-0.0002024
-0.0002008
-0.0001993
-0.0001976
-0.000196
-0.0001942
-0.0001924
-0.0001906
-0.0001887
-0.0001868
-0.0001848
-0.0001829
-0.0001807
-0.0001787
-0.0001766
-0.0001744
-0.0001722
-0.00017
-0.0001678
-0.0001654
-0.0001631
-0.0001608
-0.0001585
-0.000156
-0.0001536
-0.0001512
-0.0001487
-0.0001462
-0.0001438
-0.0001412
-0.0001387
-0.0001361
-0.0001336
-0.0001311
-0.0001284
-0.0001259
-0.0001232
-0.0001207
0.0001181
0.0001154
0.0001128
0.0001103
0.0001076
0.000105
0.0001023
9.98e-05
9.72e-05
9.45e-05
9.2e-05
8.94e-05
8.67e-05
8.43e-05
8.16e-05
7.91e-05
7.66e-05
7.41e-05
7.15e-05
6.91e-05
6.65e-05
6.41e-05
6.17e-05
5.92e-05
5.69e-05
5.44e-05
5.21e-05
4.98e-05
4.74e-05
4.51e-05
4.28e-05
4.06e-05
3.84e-05
3.62e-05
3.4e-05
3.19e-05
2.97e-05
2.77e-05
2.56e-05
2.36e-05
2.16e-05
1.96e-05
1.77e-05
1.57e-05
1.39e-05
1.21e-05
1.02e-05
8.5e-06
6.7e-06
5e-06
3.4e-06
1.7e-06
1e-07
-1.5e-06
-3e-06
-4.5e-06
-6e-06
-7.5e-06
-8.8e-06
-1.01e-05
-1.15e-05
-1.28e-05
-1.41e-05
-1.52e-05
-1.65e-05
-1.76e-05
-1.87e-05
-1.97e-05
-2.08e-05
-2.18e-05
-2.28e-05
-2.37e-05
-2.46e-05
-2.55e-05
-2.63e-05
-2.7e-05
-2.79e-05
-2.85e-05
-2.92e-05
-2.99e-05
-3.05e-05
-3.11e-05
-3.17e-05
-3.21e-05
-3.27e-05
-3.31e-05
-3.35e-05
-3.39e-05
-3.42e-05
-3.46e-05
-3.49e-05
-3.52e-05
-3.53e-05
-3.56e-05
-3.58e-05
-3.59e-05
-3.61e-05
-3.61e-05
0
-3.62e-05
-3.63e-05
-3.62e-05
-3.63e-05
-3.62e-05
-3.62e-05
0
-3.6e-05
-3.6e-05
0
-3.58e-05
-3.57e-05
-3.55e-05
-3.53e-05
-3.51e-05
-3.48e-05
-3.46e-05
-3.44e-05
-3.4e-05
-3.37e-05
-3.34e-05
-3.3e-05
-3.27e-05
-3.23e-05
-3.19e-05
-3.15e-05
-3.11e-05
-3.07e-05
-3.02e-05
-2.97e-05
-2.93e-05
-2.88e-05
-2.83e-05
-2.78e-05
-2.74e-05
-2.68e-05
-2.62e-05
-2.58e-05
-2.52e-05
-2.47e-05
-2.41e-05
-2.36e-05
-2.3e-05
-2.24e-05
-2.19e-05
-2.14e-05
-2.08e-05
-2.02e-05
